# beta is the volume thermal expansion 
#   T (K)     V(T) (a.u.)^3   B (T) (kbar)  d B (T) / dP  beta (10^(-6) K^(-1))
 0.40000E+01 0.2686455046352E+03  0.960826E+03  0.149675E+01   -0.12795198E-02
 0.70000E+01 0.2686455028211E+03  0.960825E+03  0.149678E+01   -0.47364098E-02
 0.10000E+02 0.2686454970007E+03  0.960825E+03  0.149687E+01   -0.11694902E-01
 0.13000E+02 0.2686454839704E+03  0.960822E+03  0.149706E+01   -0.23535707E-01
 0.16000E+02 0.2686454590642E+03  0.960819E+03  0.149740E+01   -0.43178182E-01
 0.19000E+02 0.2686454143726E+03  0.960812E+03  0.149791E+01   -0.75493625E-01
 0.22000E+02 0.2686453373781E+03  0.960802E+03  0.149864E+01   -0.12578429E+00
 0.25000E+02 0.2686452116244E+03  0.960787E+03  0.149960E+01   -0.19763649E+00
 0.28000E+02 0.2686450188135E+03  0.960766E+03  0.150082E+01   -0.29178112E+00
 0.31000E+02 0.2686447413112E+03  0.960738E+03  0.150229E+01   -0.40622524E+00
 0.34000E+02 0.2686443640318E+03  0.960703E+03  0.150403E+01   -0.53709649E+00
 0.37000E+02 0.2686438755835E+03  0.960660E+03  0.150604E+01   -0.67955800E+00
 0.40000E+02 0.2686432686773E+03  0.960608E+03  0.150833E+01   -0.82857552E+00
 0.43000E+02 0.2686425400361E+03  0.960548E+03  0.151088E+01   -0.97937720E+00
 0.46000E+02 0.2686416900630E+03  0.960479E+03  0.151370E+01   -0.11277182E+01
 0.49000E+02 0.2686407223233E+03  0.960401E+03  0.151677E+01   -0.12699902E+01
 0.52000E+02 0.2686396430365E+03  0.960316E+03  0.152009E+01   -0.14032063E+01
 0.55000E+02 0.2686384605822E+03  0.960222E+03  0.152365E+01   -0.15249513E+01
 0.58000E+02 0.2686371850731E+03  0.960121E+03  0.152743E+01   -0.16333512E+01
 0.61000E+02 0.2686358279090E+03  0.960012E+03  0.153143E+01   -0.17269886E+01
 0.64000E+02 0.2686344014871E+03  0.959895E+03  0.153564E+01   -0.18048217E+01
 0.67000E+02 0.2686329188858E+03  0.959772E+03  0.154004E+01   -0.18661571E+01
 0.70000E+02 0.2686313936196E+03  0.959642E+03  0.154462E+01   -0.19106171E+01
 0.73000E+02 0.2686298393754E+03  0.959505E+03  0.154938E+01   -0.19380866E+01
 0.76000E+02 0.2686282698523E+03  0.959361E+03  0.155431E+01   -0.19486513E+01
 0.79000E+02 0.2686266985984E+03  0.959212E+03  0.155939E+01   -0.19426000E+01
 0.82000E+02 0.2686251388469E+03  0.959056E+03  0.156462E+01   -0.19203818E+01
 0.85000E+02 0.2686236034215E+03  0.958894E+03  0.157000E+01   -0.18825789E+01
 0.88000E+02 0.2686221046161E+03  0.958727E+03  0.157550E+01   -0.18298944E+01
 0.91000E+02 0.2686206541210E+03  0.958555E+03  0.158113E+01   -0.17631035E+01
 0.94000E+02 0.2686192629801E+03  0.958377E+03  0.158689E+01   -0.16830489E+01
 0.97000E+02 0.2686179415249E+03  0.958194E+03  0.159275E+01   -0.15906072E+01
 0.10000E+03 0.2686166993863E+03  0.958006E+03  0.159872E+01   -0.14867000E+01
 0.10300E+03 0.2686155454102E+03  0.957814E+03  0.160480E+01   -0.13722564E+01
 0.10600E+03 0.2686144877299E+03  0.957617E+03  0.161097E+01   -0.12481911E+01
 0.10900E+03 0.2686135337168E+03  0.957416E+03  0.161723E+01   -0.11154230E+01
 0.11200E+03 0.2686126900237E+03  0.957210E+03  0.162359E+01   -0.97484032E+00
 0.11500E+03 0.2686119625899E+03  0.957000E+03  0.163002E+01   -0.82730209E+00
 0.11800E+03 0.2686113566843E+03  0.956787E+03  0.163653E+01   -0.67364769E+00
 0.12100E+03 0.2686108768934E+03  0.956570E+03  0.164312E+01   -0.51465443E+00
 0.12400E+03 0.2686105272336E+03  0.956349E+03  0.164979E+01   -0.35107373E+00
 0.12700E+03 0.2686103110808E+03  0.956125E+03  0.165652E+01   -0.18361755E+00
 0.13000E+03 0.2686102313042E+03  0.955898E+03  0.166332E+01   -0.12933959E-01
 0.13300E+03 0.2686102902357E+03  0.955668E+03  0.167018E+01    0.16035661E+00
 0.13600E+03 0.2686104897448E+03  0.955434E+03  0.167710E+01    0.33568978E+00
 0.13900E+03 0.2686108312545E+03  0.955198E+03  0.168409E+01    0.51253229E+00
 0.14200E+03 0.2686113157752E+03  0.954960E+03  0.169113E+01    0.69040466E+00
 0.14500E+03 0.2686119439575E+03  0.954718E+03  0.169822E+01    0.86887060E+00
 0.14800E+03 0.2686127161093E+03  0.954474E+03  0.170536E+01    0.10475172E+01
 0.15100E+03 0.2686136322162E+03  0.954228E+03  0.171256E+01    0.12259830E+01
 0.15400E+03 0.2686146920038E+03  0.953980E+03  0.171981E+01    0.14039450E+01
 0.15700E+03 0.2686158949377E+03  0.953729E+03  0.172710E+01    0.15811043E+01
 0.16000E+03 0.2686172402622E+03  0.953477E+03  0.173444E+01    0.17571900E+01
 0.16300E+03 0.2686187270069E+03  0.953222E+03  0.174182E+01    0.19319664E+01
 0.16600E+03 0.2686203540363E+03  0.952966E+03  0.174925E+01    0.21052284E+01
 0.16900E+03 0.2686221200501E+03  0.952708E+03  0.175671E+01    0.22767884E+01
 0.17200E+03 0.2686240236107E+03  0.952448E+03  0.176422E+01    0.24464891E+01
 0.17500E+03 0.2686260631646E+03  0.952187E+03  0.177177E+01    0.26141899E+01
 0.17800E+03 0.2686282370480E+03  0.951924E+03  0.177936E+01    0.27797671E+01
 0.18100E+03 0.2686305435081E+03  0.951659E+03  0.178698E+01    0.29431171E+01
 0.18400E+03 0.2686329807148E+03  0.951393E+03  0.179464E+01    0.31041583E+01
 0.18700E+03 0.2686355467838E+03  0.951126E+03  0.180233E+01    0.32628136E+01
 0.19000E+03 0.2686382397611E+03  0.950858E+03  0.181006E+01    0.34190269E+01
 0.19300E+03 0.2686410576720E+03  0.950588E+03  0.181783E+01    0.35727568E+01
 0.19600E+03 0.2686439984961E+03  0.950317E+03  0.182562E+01    0.37239642E+01
 0.19900E+03 0.2686470601959E+03  0.950045E+03  0.183345E+01    0.38726180E+01
 0.20200E+03 0.2686502407008E+03  0.949771E+03  0.184131E+01    0.40187082E+01
 0.20500E+03 0.2686535379574E+03  0.949497E+03  0.184920E+01    0.41622300E+01
 0.20800E+03 0.2686569498877E+03  0.949222E+03  0.185713E+01    0.43031747E+01
 0.21100E+03 0.2686604744242E+03  0.948945E+03  0.186508E+01    0.44415476E+01
 0.21400E+03 0.2686641094974E+03  0.948668E+03  0.187306E+01    0.45773652E+01
 0.21700E+03 0.2686678530667E+03  0.948389E+03  0.188106E+01    0.47106388E+01
 0.22000E+03 0.2686717030806E+03  0.948110E+03  0.188910E+01    0.48413881E+01
 0.22300E+03 0.2686756575307E+03  0.947830E+03  0.189716E+01    0.49696381E+01
 0.22600E+03 0.2686797144054E+03  0.947549E+03  0.190525E+01    0.50954154E+01
 0.22900E+03 0.2686838717392E+03  0.947267E+03  0.191337E+01    0.52187518E+01
 0.23200E+03 0.2686881275721E+03  0.946985E+03  0.192151E+01    0.53396753E+01
 0.23500E+03 0.2686924799833E+03  0.946701E+03  0.192968E+01    0.54582250E+01
 0.23800E+03 0.2686969270762E+03  0.946417E+03  0.193787E+01    0.55744381E+01
 0.24100E+03 0.2687014669896E+03  0.946132E+03  0.194609E+01    0.56883473E+01
 0.24400E+03 0.2687060978798E+03  0.945846E+03  0.195433E+01    0.57999938E+01
 0.24700E+03 0.2687108179518E+03  0.945560E+03  0.196260E+01    0.59094224E+01
 0.25000E+03 0.2687156254342E+03  0.945273E+03  0.197089E+01    0.60166672E+01
 0.25300E+03 0.2687205185868E+03  0.944985E+03  0.197920E+01    0.61217726E+01
 0.25600E+03 0.2687254957096E+03  0.944696E+03  0.198753E+01    0.62247818E+01
 0.25900E+03 0.2687305551322E+03  0.944407E+03  0.199589E+01    0.63257322E+01
 0.26200E+03 0.2687356952147E+03  0.944117E+03  0.200427E+01    0.64246690E+01
 0.26500E+03 0.2687409143596E+03  0.943827E+03  0.201267E+01    0.65216364E+01
 0.26800E+03 0.2687462109980E+03  0.943536E+03  0.202109E+01    0.66166733E+01
 0.27100E+03 0.2687515835949E+03  0.943244E+03  0.202954E+01    0.67098199E+01
 0.27400E+03 0.2687570306463E+03  0.942952E+03  0.203800E+01    0.68011233E+01
 0.27700E+03 0.2687625506931E+03  0.942659E+03  0.204649E+01    0.68906224E+01
 0.28000E+03 0.2687681422938E+03  0.942365E+03  0.205499E+01    0.69783554E+01
 0.28300E+03 0.2687738040509E+03  0.942071E+03  0.206352E+01    0.70643632E+01
 0.28600E+03 0.2687795345885E+03  0.941776E+03  0.207206E+01    0.71486864E+01
 0.28900E+03 0.2687853325744E+03  0.941480E+03  0.208063E+01    0.72313662E+01
 0.29200E+03 0.2687911966995E+03  0.941184E+03  0.208921E+01    0.73124361E+01
 0.29500E+03 0.2687971256851E+03  0.940888E+03  0.209782E+01    0.73919355E+01
 0.29800E+03 0.2688031182856E+03  0.940591E+03  0.210644E+01    0.74699060E+01
 0.30100E+03 0.2688091732893E+03  0.940293E+03  0.211508E+01    0.75463799E+01
 0.30400E+03 0.2688152895025E+03  0.939995E+03  0.212374E+01    0.76213938E+01
 0.30700E+03 0.2688214657724E+03  0.939696E+03  0.213242E+01    0.76949849E+01
 0.31000E+03 0.2688277009652E+03  0.939396E+03  0.214112E+01    0.77671806E+01
 0.31300E+03 0.2688339939722E+03  0.939096E+03  0.214983E+01    0.78380183E+01
 0.31600E+03 0.2688403437198E+03  0.938796E+03  0.215856E+01    0.79075333E+01
 0.31900E+03 0.2688467491560E+03  0.938495E+03  0.216732E+01    0.79757600E+01
 0.32200E+03 0.2688532092626E+03  0.938193E+03  0.217608E+01    0.80427259E+01
 0.32500E+03 0.2688597230319E+03  0.937891E+03  0.218487E+01    0.81084581E+01
 0.32800E+03 0.2688662894894E+03  0.937588E+03  0.219367E+01    0.81729915E+01
 0.33100E+03 0.2688729076833E+03  0.937285E+03  0.220249E+01    0.82363575E+01
 0.33400E+03 0.2688795766897E+03  0.936981E+03  0.221133E+01    0.82985817E+01
 0.33700E+03 0.2688862955981E+03  0.936676E+03  0.222018E+01    0.83596872E+01
 0.34000E+03 0.2688930635217E+03  0.936371E+03  0.222905E+01    0.84197090E+01
 0.34300E+03 0.2688998796062E+03  0.936066E+03  0.223794E+01    0.84786719E+01
 0.34600E+03 0.2689067430048E+03  0.935760E+03  0.224685E+01    0.85365997E+01
 0.34900E+03 0.2689136529016E+03  0.935453E+03  0.225577E+01    0.85935200E+01
 0.35200E+03 0.2689206084938E+03  0.935146E+03  0.226470E+01    0.86494550E+01
 0.35500E+03 0.2689276090018E+03  0.934838E+03  0.227365E+01    0.87044308E+01
 0.35800E+03 0.2689346536643E+03  0.934530E+03  0.228262E+01    0.87584694E+01
 0.36100E+03 0.2689417417374E+03  0.934221E+03  0.229161E+01    0.88115936E+01
 0.36400E+03 0.2689488724963E+03  0.933912E+03  0.230061E+01    0.88638282E+01
 0.36700E+03 0.2689560452371E+03  0.933602E+03  0.230962E+01    0.89151920E+01
 0.37000E+03 0.2689632592651E+03  0.933291E+03  0.231866E+01    0.89657076E+01
 0.37300E+03 0.2689705139127E+03  0.932980E+03  0.232770E+01    0.90153967E+01
 0.37600E+03 0.2689778085203E+03  0.932669E+03  0.233677E+01    0.90642747E+01
 0.37900E+03 0.2689851424451E+03  0.932356E+03  0.234584E+01    0.91123660E+01
 0.38200E+03 0.2689925150668E+03  0.932044E+03  0.235494E+01    0.91596882E+01
 0.38500E+03 0.2689999257705E+03  0.931731E+03  0.236405E+01    0.92062593E+01
 0.38800E+03 0.2690073739653E+03  0.931417E+03  0.237317E+01    0.92520978E+01
 0.39100E+03 0.2690148590657E+03  0.931102E+03  0.238231E+01    0.92972199E+01
 0.39400E+03 0.2690223805070E+03  0.930787E+03  0.239146E+01    0.93416451E+01
 0.39700E+03 0.2690299377354E+03  0.930472E+03  0.240063E+01    0.93853886E+01
 0.40000E+03 0.2690375302101E+03  0.930156E+03  0.240982E+01    0.94284667E+01
 0.40300E+03 0.2690451574038E+03  0.929839E+03  0.241902E+01    0.94708955E+01
 0.40600E+03 0.2690528188015E+03  0.929522E+03  0.242823E+01    0.95126907E+01
 0.40900E+03 0.2690605139013E+03  0.929204E+03  0.243746E+01    0.95538672E+01
 0.41200E+03 0.2690682422121E+03  0.928886E+03  0.244670E+01    0.95944391E+01
 0.41500E+03 0.2690760032545E+03  0.928567E+03  0.245596E+01    0.96344208E+01
 0.41800E+03 0.2690837965608E+03  0.928248E+03  0.246523E+01    0.96738263E+01
 0.42100E+03 0.2690916216740E+03  0.927928E+03  0.247452E+01    0.97126696E+01
 0.42400E+03 0.2690994781488E+03  0.927607E+03  0.248382E+01    0.97509629E+01
 0.42700E+03 0.2691073655482E+03  0.927286E+03  0.249313E+01    0.97887194E+01
 0.43000E+03 0.2691152834478E+03  0.926964E+03  0.250246E+01    0.98259523E+01
 0.43300E+03 0.2691232314319E+03  0.926642E+03  0.251181E+01    0.98626730E+01
 0.43600E+03 0.2691312090943E+03  0.926319E+03  0.252117E+01    0.98988934E+01
 0.43900E+03 0.2691392160388E+03  0.925996E+03  0.253054E+01    0.99346254E+01
 0.44200E+03 0.2691472518780E+03  0.925672E+03  0.253993E+01    0.99698799E+01
 0.44500E+03 0.2691553162335E+03  0.925347E+03  0.254933E+01    0.10004668E+02
 0.44800E+03 0.2691634087357E+03  0.925022E+03  0.255874E+01    0.10039001E+02
 0.45100E+03 0.2691715290233E+03  0.924696E+03  0.256817E+01    0.10072888E+02
 0.45400E+03 0.2691796767436E+03  0.924370E+03  0.257762E+01    0.10106340E+02
 0.45700E+03 0.2691878515515E+03  0.924043E+03  0.258707E+01    0.10139367E+02
 0.46000E+03 0.2691960531105E+03  0.923715E+03  0.259655E+01    0.10171979E+02
 0.46300E+03 0.2692042810910E+03  0.923387E+03  0.260603E+01    0.10204184E+02
 0.46600E+03 0.2692125351710E+03  0.923059E+03  0.261553E+01    0.10235993E+02
 0.46900E+03 0.2692208150366E+03  0.922729E+03  0.262505E+01    0.10267413E+02
 0.47200E+03 0.2692291203789E+03  0.922399E+03  0.263457E+01    0.10298454E+02
 0.47500E+03 0.2692374508992E+03  0.922069E+03  0.264412E+01    0.10329125E+02
 0.47800E+03 0.2692458063023E+03  0.921738E+03  0.265367E+01    0.10359433E+02
 0.48100E+03 0.2692541863022E+03  0.921406E+03  0.266324E+01    0.10389387E+02
 0.48400E+03 0.2692625906177E+03  0.921074E+03  0.267283E+01    0.10418993E+02
 0.48700E+03 0.2692710189725E+03  0.920741E+03  0.268242E+01    0.10448261E+02
 0.49000E+03 0.2692794711014E+03  0.920408E+03  0.269203E+01    0.10477199E+02
 0.49300E+03 0.2692879467396E+03  0.920074E+03  0.270166E+01    0.10505811E+02
 0.49600E+03 0.2692964456318E+03  0.919739E+03  0.271130E+01    0.10534108E+02
 0.49900E+03 0.2693049675274E+03  0.919404E+03  0.272095E+01    0.10562095E+02
 0.50200E+03 0.2693135121798E+03  0.919068E+03  0.273062E+01    0.10589778E+02
 0.50500E+03 0.2693220793487E+03  0.918732E+03  0.274030E+01    0.10617164E+02
 0.50800E+03 0.2693306687999E+03  0.918394E+03  0.274999E+01    0.10644263E+02
 0.51100E+03 0.2693392803067E+03  0.918057E+03  0.275970E+01    0.10671077E+02
 0.51400E+03 0.2693479136408E+03  0.917718E+03  0.276942E+01    0.10697612E+02
 0.51700E+03 0.2693565685832E+03  0.917380E+03  0.277916E+01    0.10723877E+02
 0.52000E+03 0.2693652449207E+03  0.917040E+03  0.278891E+01    0.10749876E+02
 0.52300E+03 0.2693739424407E+03  0.916700E+03  0.279867E+01    0.10775615E+02
 0.52600E+03 0.2693826609405E+03  0.916359E+03  0.280845E+01    0.10801102E+02
 0.52900E+03 0.2693914002178E+03  0.916018E+03  0.281824E+01    0.10826339E+02
 0.53200E+03 0.2694001600759E+03  0.915676E+03  0.282805E+01    0.10851333E+02
 0.53500E+03 0.2694089403223E+03  0.915333E+03  0.283787E+01    0.10876088E+02
 0.53800E+03 0.2694177407678E+03  0.914990E+03  0.284770E+01    0.10900611E+02
 0.54100E+03 0.2694265612302E+03  0.914646E+03  0.285755E+01    0.10924906E+02
 0.54400E+03 0.2694354015271E+03  0.914302E+03  0.286741E+01    0.10948977E+02
 0.54700E+03 0.2694442614820E+03  0.913957E+03  0.287728E+01    0.10972831E+02
 0.55000E+03 0.2694531409250E+03  0.913611E+03  0.288717E+01    0.10996473E+02
 0.55300E+03 0.2694620396867E+03  0.913264E+03  0.289707E+01    0.11019901E+02
 0.55600E+03 0.2694709575957E+03  0.912917E+03  0.290699E+01    0.11043128E+02
 0.55900E+03 0.2694798945009E+03  0.912570E+03  0.291692E+01    0.11066156E+02
 0.56200E+03 0.2694888502349E+03  0.912222E+03  0.292686E+01    0.11088985E+02
 0.56500E+03 0.2694978246479E+03  0.911873E+03  0.293682E+01    0.11111624E+02
 0.56800E+03 0.2695068175863E+03  0.911523E+03  0.294679E+01    0.11134076E+02
 0.57100E+03 0.2695158289034E+03  0.911173E+03  0.295678E+01    0.11156341E+02
 0.57400E+03 0.2695248584500E+03  0.910822E+03  0.296678E+01    0.11178427E+02
 0.57700E+03 0.2695339060875E+03  0.910471E+03  0.297679E+01    0.11200340E+02
 0.58000E+03 0.2695429716787E+03  0.910119E+03  0.298682E+01    0.11222080E+02
 0.58300E+03 0.2695520550837E+03  0.909766E+03  0.299686E+01    0.11243649E+02
 0.58600E+03 0.2695611561711E+03  0.909412E+03  0.300692E+01    0.11265054E+02
 0.58900E+03 0.2695702748103E+03  0.909058E+03  0.301699E+01    0.11286297E+02
 0.59200E+03 0.2695794108720E+03  0.908704E+03  0.302707E+01    0.11307381E+02
 0.59500E+03 0.2695885642325E+03  0.908348E+03  0.303717E+01    0.11328311E+02
 0.59800E+03 0.2695977347714E+03  0.907992E+03  0.304728E+01    0.11349092E+02
 0.60100E+03 0.2696069223690E+03  0.907636E+03  0.305741E+01    0.11369721E+02
 0.60400E+03 0.2696161269044E+03  0.907279E+03  0.306755E+01    0.11390205E+02
 0.60700E+03 0.2696253482666E+03  0.906921E+03  0.307770E+01    0.11410548E+02
 0.61000E+03 0.2696345863421E+03  0.906562E+03  0.308787E+01    0.11430752E+02
 0.61300E+03 0.2696438410226E+03  0.906203E+03  0.309806E+01    0.11450817E+02
 0.61600E+03 0.2696531121958E+03  0.905843E+03  0.310825E+01    0.11470750E+02
 0.61900E+03 0.2696623997634E+03  0.905482E+03  0.311846E+01    0.11490554E+02
 0.62200E+03 0.2696717036188E+03  0.905121E+03  0.312869E+01    0.11510231E+02
 0.62500E+03 0.2696810236643E+03  0.904759E+03  0.313893E+01    0.11529779E+02
 0.62800E+03 0.2696903597940E+03  0.904397E+03  0.314918E+01    0.11549206E+02
 0.63100E+03 0.2696997119217E+03  0.904033E+03  0.315945E+01    0.11568515E+02
 0.63400E+03 0.2697090799449E+03  0.903670E+03  0.316974E+01    0.11587703E+02
 0.63700E+03 0.2697184637734E+03  0.903305E+03  0.318003E+01    0.11606780E+02
 0.64000E+03 0.2697278633218E+03  0.902940E+03  0.319034E+01    0.11625745E+02
 0.64300E+03 0.2697372784973E+03  0.902574E+03  0.320067E+01    0.11644594E+02
 0.64600E+03 0.2697467092091E+03  0.902207E+03  0.321101E+01    0.11663340E+02
 0.64900E+03 0.2697561553821E+03  0.901840E+03  0.322137E+01    0.11681983E+02
 0.65200E+03 0.2697656169302E+03  0.901472E+03  0.323174E+01    0.11700515E+02
 0.65500E+03 0.2697750937627E+03  0.901104E+03  0.324212E+01    0.11718948E+02
 0.65800E+03 0.2697845858127E+03  0.900734E+03  0.325252E+01    0.11737290E+02
 0.66100E+03 0.2697940930016E+03  0.900364E+03  0.326293E+01    0.11755533E+02
 0.66400E+03 0.2698036152537E+03  0.899994E+03  0.327336E+01    0.11773675E+02
 0.66700E+03 0.2698131524825E+03  0.899622E+03  0.328380E+01    0.11791726E+02
 0.67000E+03 0.2698227046304E+03  0.899250E+03  0.329426E+01    0.11809691E+02
 0.67300E+03 0.2698322716184E+03  0.898878E+03  0.330473E+01    0.11827563E+02
 0.67600E+03 0.2698418533790E+03  0.898504E+03  0.331522E+01    0.11845353E+02
 0.67900E+03 0.2698514498498E+03  0.898130E+03  0.332572E+01    0.11863056E+02
 0.68200E+03 0.2698610609558E+03  0.897756E+03  0.333624E+01    0.11880675E+02
 0.68500E+03 0.2698706866386E+03  0.897380E+03  0.334677E+01    0.11898212E+02
 0.68800E+03 0.2698803268271E+03  0.897004E+03  0.335732E+01    0.11915673E+02
 0.69100E+03 0.2698899814730E+03  0.896627E+03  0.336788E+01    0.11933058E+02
 0.69400E+03 0.2698996505040E+03  0.896250E+03  0.337846E+01    0.11950359E+02
 0.69700E+03 0.2699093338598E+03  0.895872E+03  0.338905E+01    0.11967593E+02
 0.70000E+03 0.2699190314950E+03  0.895493E+03  0.339966E+01    0.11984755E+02
 0.70300E+03 0.2699287433410E+03  0.895113E+03  0.341028E+01    0.12001840E+02
 0.70600E+03 0.2699384693440E+03  0.894733E+03  0.342091E+01    0.12018862E+02
 0.70900E+03 0.2699482094598E+03  0.894352E+03  0.343157E+01    0.12035816E+02
 0.71200E+03 0.2699579636262E+03  0.893970E+03  0.344223E+01    0.12052700E+02
 0.71500E+03 0.2699677317943E+03  0.893588E+03  0.345292E+01    0.12069521E+02
 0.71800E+03 0.2699775139135E+03  0.893205E+03  0.346361E+01    0.12086278E+02
 0.72100E+03 0.2699873099335E+03  0.892821E+03  0.347433E+01    0.12102976E+02
 0.72400E+03 0.2699971198130E+03  0.892436E+03  0.348506E+01    0.12119615E+02
 0.72700E+03 0.2700069435007E+03  0.892051E+03  0.349580E+01    0.12136193E+02
 0.73000E+03 0.2700167809514E+03  0.891665E+03  0.350656E+01    0.12152709E+02
 0.73300E+03 0.2700266321129E+03  0.891279E+03  0.351734E+01    0.12169172E+02
 0.73600E+03 0.2700364969546E+03  0.890891E+03  0.352813E+01    0.12185588E+02
 0.73900E+03 0.2700463754338E+03  0.890503E+03  0.353893E+01    0.12201943E+02
 0.74200E+03 0.2700562674972E+03  0.890114E+03  0.354975E+01    0.12218245E+02
 0.74500E+03 0.2700661731153E+03  0.889725E+03  0.356059E+01    0.12234500E+02
 0.74800E+03 0.2700760922447E+03  0.889335E+03  0.357144E+01    0.12250705E+02
 0.75100E+03 0.2700860248508E+03  0.888944E+03  0.358231E+01    0.12266861E+02
 0.75400E+03 0.2700959708918E+03  0.888552E+03  0.359320E+01    0.12282970E+02
